time	V(OUT)*Id(M1)+V(N144)*Ig(M1)
0.000000000000000e+000	5.806863e-009
4.882812226379360e-014	-4.058964e-004
9.765624452758720e-014	-5.401726e-004
1.953124890551744e-013	-2.973647e-004
3.906249781103488e-013	3.017144e-004
7.812499562206976e-013	4.052406e-004
1.562499912441395e-012	1.205602e-004
3.124999824882790e-012	2.464596e-005
6.249999649765581e-012	-4.031036e-005
1.249999929953116e-011	-3.317326e-005
2.499999859906232e-011	-2.012408e-005
4.999999719812465e-011	-3.827758e-005
9.999999439624929e-011	-1.100173e-004
1.999999887924986e-010	-2.638623e-004
3.999999775849972e-010	-5.911852e-004
7.199426452111489e-010	-1.104563e-003
1.312946153795480e-009	-1.994214e-003
2.180401499338474e-009	-3.170806e-003
3.426336150685425e-009	-4.632609e-003
5.084721159417898e-009	-6.228783e-003
7.320733565235154e-009	-7.882092e-003
1.024063127972541e-008	-9.410369e-003
1.413494020182681e-008	-1.071433e-002
1.901775270182681e-008	-1.166174e-002
2.390056520182681e-008	-1.216389e-002
2.878337770182681e-008	-1.241337e-002
3.366619020182681e-008	-1.253699e-002
3.854900270182681e-008	-1.259778e-002
4.343181520182681e-008	-1.262710e-002
4.831462770182681e-008	-1.264056e-002
5.319744020182681e-008	-1.264595e-002
5.808025270182681e-008	-1.264716e-002
6.296306520182681e-008	-1.264615e-002
6.784587770182681e-008	-1.264391e-002
7.272869020182681e-008	-1.264095e-002
7.761150270182680e-008	-1.263753e-002
8.249431520182680e-008	-1.263380e-002
8.737712770182680e-008	-1.262985e-002
9.225994020182680e-008	-1.262572e-002
9.714275270182680e-008	-1.262145e-002
1.020255652018268e-007	-1.261707e-002
1.069083777018268e-007	-1.261259e-002
1.117911902018268e-007	-1.260802e-002
1.166740027018268e-007	-1.260338e-002
1.215568152018268e-007	-1.259868e-002
1.264396277018268e-007	-1.259393e-002
1.313224402018268e-007	-1.258913e-002
1.362052527018268e-007	-1.258429e-002
1.410880652018269e-007	-1.257941e-002
1.459708777018269e-007	-1.257450e-002
1.508536902018269e-007	-1.256957e-002
1.557365027018269e-007	-1.256461e-002
1.606193152018269e-007	-1.255964e-002
1.655021277018269e-007	-1.255465e-002
1.703849402018269e-007	-1.254964e-002
1.752677527018269e-007	-1.254462e-002
1.801505652018270e-007	-1.253959e-002
1.850333777018270e-007	-1.253455e-002
1.899161902018270e-007	-1.252950e-002
1.947990027018270e-007	-1.252444e-002
1.996818152018270e-007	-1.251937e-002
2.045646277018270e-007	-1.251431e-002
2.094474402018270e-007	-1.250923e-002
2.143302527018270e-007	-1.250415e-002
2.192130652018271e-007	-1.249907e-002
2.240958777018271e-007	-1.249399e-002
2.289786902018271e-007	-1.248890e-002
2.338615027018271e-007	-1.248381e-002
2.387443152018271e-007	-1.247872e-002
2.436271277018271e-007	-1.247363e-002
2.485099402018271e-007	-1.246853e-002
2.533927527018272e-007	-1.246344e-002
2.582755652018272e-007	-1.245834e-002
2.631583777018272e-007	-1.245324e-002
2.680411902018272e-007	-1.244814e-002
2.778068152018272e-007	-1.243794e-002
2.875724402018272e-007	-1.242774e-002
2.973380652018273e-007	-1.241753e-002
3.119865027018273e-007	-1.240223e-002
3.266349402018273e-007	-1.238691e-002
3.384931991303988e-007	-1.237452e-002
3.503514580589703e-007	-1.236212e-002
3.622097169875417e-007	-1.234973e-002
3.740679759161132e-007	-1.233733e-002
3.859262348446847e-007	-1.232493e-002
3.977844937732561e-007	-1.231254e-002
4.096427527018276e-007	-1.230014e-002
4.821873955589706e-007	-1.222430e-002
5.547320384161138e-007	-1.214846e-002
6.272766812732568e-007	-1.207262e-002
6.998213241303998e-007	-1.199678e-002
7.723659669875429e-007	-1.192093e-002
8.449106098446860e-007	-1.184509e-002
9.174552527018288e-007	-1.176925e-002
1.366674002701830e-006	-1.129962e-002
2.577611502701804e-006	-1.003365e-002
2.582494315201804e-006	-6.812956e-003
2.587377127701804e-006	1.098633e-002
2.592259940201804e-006	5.648369e-002
2.597142752701803e-006	1.345238e-001
2.602025565201803e-006	2.448177e-001
2.606908377701803e-006	3.870715e-001
2.611791190201803e-006	5.610279e-001
2.616674002701803e-006	7.664574e-001
2.621556815201802e-006	1.003154e+000
2.626439627701802e-006	1.270929e+000
2.631322440201802e-006	1.569609e+000
2.636205252701802e-006	1.899030e+000
2.641088065201802e-006	2.259040e+000
2.645970877701801e-006	2.649491e+000
2.650853690201801e-006	3.070241e+000
2.655736502701801e-006	3.521153e+000
2.660619315201801e-006	4.002092e+000
2.665502127701801e-006	4.512923e+000
2.670384940201800e-006	5.053516e+000
2.675267752701800e-006	5.623739e+000
2.685033377701800e-006	6.852549e+000
2.694799002701799e-006	8.198302e+000
2.704564627701799e-006	9.659934e+000
2.714330252701799e-006	1.123637e+001
2.728978690201798e-006	1.381387e+001
2.743627127701797e-006	1.664341e+001
2.758275565201797e-006	1.972111e+001
2.772924002701796e-006	2.304295e+001
2.780596993773224e-006	2.488012e+001
2.788269984844653e-006	2.678144e+001
2.795942975916081e-006	2.874675e+001
2.803615966987509e-006	3.077586e+001
2.811288958058938e-006	3.286857e+001
2.818961949130366e-006	3.502469e+001
2.826634940201794e-006	3.724401e+001
2.831517752701794e-006	3.868763e+001
2.853141636630365e-006	4.540267e+001
2.874765520558935e-006	5.256000e+001
2.896389404487506e-006	6.015375e+001
2.918013288416076e-006	6.817761e+001
2.939637172344647e-006	7.662481e+001
2.961261056273217e-006	8.548810e+001
2.982884940201788e-006	9.475980e+001
3.003113734844644e-006	1.037643e+002
3.023342529487500e-006	1.130308e+002
3.043571324130357e-006	1.225505e+002
3.063800118773213e-006	1.323141e+002
3.084028913416069e-006	1.423119e+002
3.104257708058926e-006	1.525336e+002
3.124486502701782e-006	1.629688e+002
3.144017752701781e-006	1.732012e+002
3.163549002701780e-006	1.834849e+002
3.183080252701780e-006	1.938053e+002
3.202611502701779e-006	2.041477e+002
3.222142752701778e-006	2.144967e+002
3.241674002701777e-006	2.248367e+002
3.261205252701776e-006	2.351514e+002
3.277946324130347e-006	2.438813e+002
3.294687395558918e-006	2.524258e+002
3.311428466987489e-006	2.607696e+002
3.328169538416059e-006	2.688973e+002
3.344910609844630e-006	2.767932e+002
3.361651681273201e-006	2.844418e+002
3.378392752701772e-006	2.918272e+002
3.393041190201771e-006	2.979514e+002
3.407689627701770e-006	3.037774e+002
3.417455252701770e-006	3.074833e+002
3.427220877701770e-006	3.110380e+002
3.436986502701769e-006	3.144342e+002
3.446752127701769e-006	3.176649e+002
3.456517752701768e-006	3.207227e+002
3.466283377701768e-006	3.236009e+002
3.476049002701768e-006	3.262925e+002
3.480931815201767e-006	3.275663e+002
3.485814627701767e-006	3.287908e+002
3.490697440201767e-006	3.299654e+002
3.495580252701767e-006	3.310891e+002
3.500463065201767e-006	3.321612e+002
3.505345877701766e-006	3.331809e+002
3.510228690201766e-006	3.341472e+002
3.515111502701766e-006	3.350595e+002
3.519994315201766e-006	3.359168e+002
3.524877127701766e-006	3.367184e+002
3.529759940201765e-006	3.374636e+002
3.534642752701765e-006	3.381513e+002
3.539525565201765e-006	3.387810e+002
3.544408377701765e-006	3.393517e+002
3.549291190201765e-006	3.398626e+002
3.554174002701764e-006	3.403129e+002
3.559056815201764e-006	3.407018e+002
3.563939627701764e-006	3.410285e+002
3.568822440201764e-006	3.412921e+002
3.573705252701764e-006	3.414919e+002
3.578588065201763e-006	3.416269e+002
3.583470877701763e-006	3.416965e+002
3.588353690201763e-006	3.416996e+002
3.593236502701763e-006	3.416356e+002
3.598119315201763e-006	3.415034e+002
3.603002127701762e-006	3.413023e+002
3.607884940201762e-006	3.410314e+002
3.612767752701762e-006	3.406899e+002
3.617650565201762e-006	3.402768e+002
3.622533377701762e-006	3.397913e+002
3.627416190201761e-006	3.392327e+002
3.632299002701761e-006	3.385998e+002
3.637181815201761e-006	3.378919e+002
3.642064627701761e-006	3.371080e+002
3.646947440201761e-006	3.362473e+002
3.651830252701760e-006	3.353089e+002
3.656713065201760e-006	3.342919e+002
3.661595877701760e-006	3.331953e+002
3.666478690201760e-006	3.320182e+002
3.671361502701760e-006	3.307598e+002
3.676244315201759e-006	3.294191e+002
3.681127127701759e-006	3.279953e+002
3.686009940201759e-006	3.264873e+002
3.690892752701759e-006	3.248943e+002
3.695775565201759e-006	3.232153e+002
3.700658377701758e-006	3.214494e+002
3.705541190201758e-006	3.195957e+002
3.710424002701758e-006	3.176533e+002
3.715306815201758e-006	3.156213e+002
3.720189627701758e-006	3.134987e+002
3.725072440201757e-006	3.112846e+002
3.729955252701757e-006	3.089781e+002
3.734838065201757e-006	3.065783e+002
3.739720877701757e-006	3.040843e+002
3.744603690201757e-006	3.014951e+002
3.749486502701756e-006	2.988099e+002
3.754369315201756e-006	2.960278e+002
3.759252127701756e-006	2.931479e+002
3.764134940201756e-006	2.901693e+002
3.769017752701756e-006	2.870912e+002
3.773900565201755e-006	2.839126e+002
3.778783377701755e-006	2.806329e+002
3.783666190201755e-006	2.772510e+002
3.788549002701755e-006	2.737663e+002
3.793431815201755e-006	2.701778e+002
3.798314627701754e-006	2.664849e+002
3.803197440201754e-006	2.626868e+002
3.808080252701754e-006	2.587827e+002
3.812963065201754e-006	2.547720e+002
3.817845877701754e-006	2.506539e+002
3.822728690201753e-006	2.464279e+002
3.827611502701753e-006	2.420933e+002
3.832494315201753e-006	2.376495e+002
3.837377127701753e-006	2.330962e+002
3.842259940201753e-006	2.284328e+002
3.847142752701753e-006	2.236590e+002
3.852025565201752e-006	2.187743e+002
3.856908377701752e-006	2.137787e+002
3.861791190201752e-006	2.086720e+002
3.866674002701752e-006	2.034540e+002
3.871556815201752e-006	1.981250e+002
3.876439627701751e-006	1.926852e+002
3.881322440201751e-006	1.871349e+002
3.886205252701751e-006	1.814748e+002
3.891088065201751e-006	1.757056e+002
3.895970877701751e-006	1.698285e+002
3.900853690201750e-006	1.638449e+002
3.905736502701750e-006	1.577564e+002
3.910619315201750e-006	1.515654e+002
3.915502127701750e-006	1.452745e+002
3.920384940201750e-006	1.388872e+002
3.925267752701749e-006	1.324076e+002
3.930150565201749e-006	1.258409e+002
3.935033377701749e-006	1.191936e+002
3.939916190201749e-006	1.124735e+002
3.944799002701749e-006	1.056906e+002
3.949681815201748e-006	9.885738e+001
3.954564627701748e-006	9.198957e+001
3.959447440201748e-006	8.510723e+001
3.964330252701748e-006	7.823614e+001
3.969213065201748e-006	7.140956e+001
3.974095877701747e-006	6.467064e+001
3.978978690201747e-006	5.807500e+001
3.983861502701747e-006	5.169294e+001
3.988744315201747e-006	4.560883e+001
3.993627127701747e-006	3.991373e+001
3.998509940201746e-006	3.468777e+001
4.003392752701746e-006	2.997660e+001
4.008275565201746e-006	2.577604e+001
4.013158377701746e-006	2.203627e+001
4.018041190201746e-006	1.868046e+001
4.022924002701745e-006	1.562454e+001
4.027806815201745e-006	1.279030e+001
4.032689627701745e-006	1.011268e+001
4.037572440201745e-006	7.626093e+000
4.042455252701745e-006	5.565600e+000
4.047159433592497e-006	4.149602e+000
4.052042246092497e-006	3.170941e+000
4.056925058592496e-006	2.519910e+000
4.061807871092496e-006	2.081733e+000
4.066690683592496e-006	1.781454e+000
4.071573496092496e-006	1.572241e+000
4.076456308592496e-006	1.424364e+000
4.081339121092495e-006	1.318578e+000
4.086221933592495e-006	1.242119e+000
4.091104746092495e-006	1.186367e+000
4.095987558592495e-006	1.145378e+000
4.100870371092495e-006	1.115002e+000
4.105753183592494e-006	1.092301e+000
4.110635996092494e-006	1.075177e+000
4.115518808592494e-006	1.062119e+000
4.120401621092494e-006	1.052036e+000
4.125284433592494e-006	1.044131e+000
4.130167246092493e-006	1.037826e+000
4.135050058592493e-006	1.032699e+000
4.139932871092493e-006	1.028438e+000
4.144815683592493e-006	1.024817e+000
4.149698496092493e-006	1.021670e+000
4.154581308592492e-006	1.018874e+000
4.159464121092492e-006	1.016340e+000
4.164346933592492e-006	1.014000e+000
4.169229746092492e-006	1.011808e+000
4.174112558592492e-006	1.009727e+000
4.178995371092491e-006	1.007732e+000
4.183878183592491e-006	1.005802e+000
4.188760996092491e-006	1.003924e+000
4.193643808592491e-006	1.002088e+000
4.203409433592490e-006	9.985100e-001
4.213175058592490e-006	9.950281e-001
4.222243138949633e-006	9.918696e-001
4.231311219306775e-006	9.887546e-001
4.240379299663918e-006	9.856828e-001
4.249447380021060e-006	9.826544e-001
4.258515460378203e-006	9.796694e-001
4.267583540735345e-006	9.767276e-001
4.276651621092487e-006	9.738292e-001
4.296182871092487e-006	9.676981e-001
4.347801174663913e-006	9.524721e-001
4.399419478235339e-006	9.380527e-001
4.451037781806766e-006	9.244396e-001
4.502656085378193e-006	9.116328e-001
4.554274388949619e-006	8.996318e-001
4.605892692521045e-006	8.884367e-001
4.657510996092472e-006	8.780471e-001
4.706042494417809e-006	8.687098e-001
4.754573992743146e-006	8.597661e-001
4.803105491068483e-006	8.512160e-001
4.851636989393820e-006	8.430594e-001
4.900168487719156e-006	8.352963e-001
4.948699986044493e-006	8.279267e-001
4.997231484369830e-006	8.209505e-001
4.998539921890511e-006	8.207650e-001
5.000000000000000e-006	8.205555e-001
