time	Id(M1)
0.000000000000000e+000	1.012523e-010
9.765624940649698e-012	-5.014248e-007
1.953124988129940e-011	-9.698124e-007
2.197265611646182e-011	-1.076551e-006
2.685546858678667e-011	-1.249562e-006
3.662109352743637e-011	-1.614127e-006
5.615234340873576e-011	-2.443963e-006
9.521484317133455e-011	-3.978250e-006
1.733398426965321e-010	-6.965207e-006
3.295898417469273e-010	-1.287485e-005
6.420898398477176e-010	-2.421308e-005
1.221512257274973e-009	-4.377124e-005
2.037628602913189e-009	-6.767696e-005
3.238230584271410e-009	-9.330284e-005
4.820297388414612e-009	-1.035880e-004
6.982926918135331e-009	-5.848170e-005
9.783275751471353e-009	1.362399e-004
1.353769408518237e-008	7.008232e-004
1.849002358862797e-008	2.071517e-003
2.533686546803010e-008	5.253528e-003
3.504869836660486e-008	1.245701e-002
5.009230143063499e-008	3.007372e-002
7.614293458159348e-008	7.992470e-002
1.282442008835104e-007	2.507468e-001
2.324467334873443e-007	8.546792e-001
4.408517986950122e-007	2.983588e+000
8.576619291103478e-007	9.294467e+000
1.124158958725293e-006	1.452253e+001
1.365485218465933e-006	2.011684e+001
1.592685558260156e-006	2.579965e+001
1.746531743857545e-006	2.964571e+001
1.842973964192907e-006	3.148660e+001
1.896719388480647e-006	3.093057e+001
1.929789465375834e-006	2.743192e+001
1.945670893755580e-006	2.327478e+001
1.961298152612753e-006	1.841279e+001
1.977933015908338e-006	1.460450e+001
1.991357424959363e-006	1.269384e+001
2.006350622429911e-006	1.148679e+001
2.022115800704910e-006	1.079534e+001
2.041417801679999e-006	1.038182e+001
2.063542490005488e-006	1.017708e+001
2.092865197985155e-006	1.008240e+001
2.130905340276894e-006	1.004893e+001
2.189207661866897e-006	1.003919e+001
2.282195309581962e-006	1.003503e+001
2.468170605012092e-006	1.002944e+001
2.840121195872351e-006	1.002187e+001
3.584022377592869e-006	1.001308e+001
4.128005888620687e-006	1.000955e+001
5.000000000000000e-006	1.000757e+001
5.087199411137932e-006	1.000325e+001
5.261598233413795e-006	1.000020e+001
5.610395877965520e-006	9.999936e+000
6.094157853657930e-006	1.000002e+001
7.061681805042749e-006	9.999981e+000
8.038244305042749e-006	9.999984e+000
9.014806805042749e-006	9.999981e+000
9.991369305042750e-006	9.999983e+000
1.096793180504275e-005	9.999981e+000
1.194449430504275e-005	9.999983e+000
1.292105680504275e-005	9.999981e+000
1.389761930504275e-005	9.999983e+000
1.487418180504276e-005	9.999981e+000
1.585074430504276e-005	9.999983e+000
1.682730680504276e-005	9.999982e+000
1.780386930504276e-005	9.999983e+000
1.878043180504276e-005	9.999982e+000
1.975699430504276e-005	9.999983e+000
2.073355680504276e-005	9.999982e+000
2.171011930504276e-005	9.999983e+000
2.268668180504276e-005	9.999982e+000
2.366324430504276e-005	9.999983e+000
2.463980680504276e-005	9.999982e+000
2.561636930504276e-005	9.999983e+000
2.659293180504277e-005	9.999982e+000
2.756949430504277e-005	9.999983e+000
2.854605680504277e-005	9.999982e+000
2.952261930504277e-005	9.999983e+000
3.049918180504277e-005	9.999983e+000
3.147574430504277e-005	9.999983e+000
3.245230680504277e-005	9.999982e+000
3.342886930504277e-005	9.999983e+000
3.440543180504277e-005	9.999983e+000
3.538199430504277e-005	9.999983e+000
3.635855680504277e-005	9.999983e+000
3.733511930504278e-005	9.999983e+000
3.831168180504278e-005	9.999983e+000
3.928824430504278e-005	9.999983e+000
4.026480680504278e-005	9.999982e+000
4.124136930504278e-005	9.999982e+000
4.221793180504278e-005	9.999982e+000
4.319449430504278e-005	9.999983e+000
4.417105680504278e-005	9.999983e+000
4.514761930504278e-005	9.999983e+000
4.612418180504278e-005	9.999982e+000
4.710074430504278e-005	9.999982e+000
4.807730680504278e-005	9.999982e+000
4.905386930504279e-005	9.999982e+000
5.003043180504279e-005	9.999982e+000
5.100699430504279e-005	9.999982e+000
5.198355680504279e-005	9.999982e+000
5.296011930504279e-005	9.999983e+000
5.393668180504279e-005	9.999975e+000
5.402343750000000e-005	9.999978e+000
5.419694888991443e-005	9.999985e+000
5.454397166974327e-005	9.999982e+000
5.500000000000000e-005	9.999959e+000
5.504560283302568e-005	9.997142e+000
5.513680849907702e-005	9.994215e+000
5.531921983117971e-005	9.992945e+000
5.561424946256770e-005	9.992032e+000
5.617357998214253e-005	9.988909e+000
5.715014248214253e-005	9.976877e+000
5.812670498214253e-005	9.940716e+000
5.857419370231349e-005	9.884138e+000
5.884653671688482e-005	9.782977e+000
5.900766903231616e-005	9.612741e+000
5.910801692907877e-005	9.307514e+000
5.917822834030482e-005	8.769064e+000
5.922815548959296e-005	8.102312e+000
5.927479288706830e-005	7.357851e+000
5.934425543992212e-005	6.248435e+000
5.941871111114392e-005	5.102381e+000
5.951383513453575e-005	3.794323e+000
5.966454948583565e-005	2.104085e+000
5.981951558399538e-005	8.981879e-001
6.000000000000000e-005	3.726459e-002
6.000130224163065e-005	3.613184e-002
6.000390672489193e-005	3.419423e-002
6.000911569141449e-005	3.165850e-002
6.001560512194811e-005	3.002702e-002
6.002361499380534e-005	2.917093e-002
6.003301724720940e-005	2.875728e-002
6.004669621948644e-005	2.846568e-002
6.006702386516114e-005	2.815936e-002
6.010500019670408e-005	2.766577e-002
6.018095285978995e-005	2.680447e-002
6.033285818596169e-005	2.518856e-002
6.052181333167622e-005	2.254790e-002
6.064961224579620e-005	1.912896e-002
6.076758456996958e-005	1.381109e-002
6.090753300314807e-005	6.323865e-003
6.096521500788269e-005	3.790033e-003
6.101686989095594e-005	2.343955e-003
6.107778162721559e-005	1.310032e-003
6.114303732617819e-005	6.499451e-004
6.117565665158617e-005	4.548805e-004
6.121778235966564e-005	2.999101e-004
6.125403486492958e-005	2.084449e-004
6.129590860314726e-005	1.377101e-004
6.133351068556288e-005	9.462023e-005
6.137480723958007e-005	6.305955e-005
6.141590540886051e-005	4.186826e-005
6.145484431980595e-005	2.845245e-005
6.149562870850417e-005	1.900100e-005
6.153363036808769e-005	1.304615e-005
6.157487263669595e-005	8.733705e-006
6.161963121580371e-005	5.671219e-006
6.167304967422383e-005	3.403954e-006
6.173554951514200e-005	1.883064e-006
6.181599817367467e-005	8.868778e-007
6.191669539414576e-005	3.512234e-007
6.206546104371301e-005	9.374868e-008
6.228296422111784e-005	1.290081e-008
6.271253112237196e-005	-1.879622e-010
6.357166492488022e-005	1.305779e-010
6.454822742488022e-005	9.367795e-011
6.552478992488022e-005	1.065246e-010
6.650135242488022e-005	9.833911e-011
6.747791492488022e-005	1.035687e-010
6.845447742488022e-005	9.993073e-011
7.138416492488022e-005	1.019771e-010
9.940895484976049e-005	1.512975e-010
1.000000000000000e-004	4.266485e-006
1.000013003003866e-004	-3.755630e-005
1.000039009011599e-004	-6.384973e-005
1.000091021027064e-004	1.296099e-004
1.000132588447677e-004	6.397844e-004
1.000175789139842e-004	1.722200e-003
1.000235120731421e-004	4.238546e-003
1.000326641083691e-004	1.042510e-002
1.000465019192423e-004	2.519525e-002
1.000698921653076e-004	6.598559e-002
1.001166726574382e-004	2.055092e-001
1.002102336416993e-004	6.991107e-001
1.003973556102217e-004	2.449210e+000
1.007715995472664e-004	7.715249e+000
1.010358021879021e-004	1.262879e+001
1.012906653089542e-004	1.833179e+001
1.015355604395927e-004	2.434943e+001
1.017090246621322e-004	2.872821e+001
1.018313927338326e-004	3.130948e+001
1.018929325433782e-004	3.110712e+001
1.019277402459964e-004	2.781066e+001
1.019453073045120e-004	2.333720e+001
1.019605994874699e-004	1.858216e+001
1.019773103530338e-004	1.469829e+001
1.019904165667997e-004	1.278306e+001
1.020051359585927e-004	1.155701e+001
1.020208952398295e-004	1.083407e+001
1.020399779620684e-004	1.040217e+001
1.020618571397618e-004	1.018660e+001
1.020905402483073e-004	1.008637e+001
1.021278114413705e-004	1.005019e+001
1.021842594828912e-004	1.003955e+001
1.022742020823724e-004	1.003531e+001
1.024540872813349e-004	1.002982e+001
1.028138576792599e-004	1.002230e+001
1.035333984751099e-004	1.001353e+001
1.041297125171866e-004	1.000957e+001
1.050000000000000e-004	1.000746e+001
1.050870287482814e-004	1.000322e+001
1.052610862448440e-004	1.000021e+001
1.056092012379694e-004	9.999936e+000
1.060921804078430e-004	1.000002e+001
1.070581387475901e-004	9.999980e+000
1.080347012475901e-004	9.999984e+000
1.090112637475901e-004	9.999981e+000
1.099878262475901e-004	9.999983e+000
1.109643887475901e-004	9.999981e+000
1.119409512475901e-004	9.999983e+000
1.129175137475901e-004	9.999981e+000
1.138940762475901e-004	9.999983e+000
1.148706387475901e-004	9.999982e+000
1.158472012475901e-004	9.999983e+000
1.168237637475901e-004	9.999982e+000
1.178003262475902e-004	9.999983e+000
1.187768887475902e-004	9.999982e+000
1.197534512475902e-004	9.999983e+000
1.207300137475902e-004	9.999982e+000
1.217065762475902e-004	9.999983e+000
1.226831387475901e-004	9.999982e+000
1.236597012475901e-004	9.999983e+000
1.246362637475901e-004	9.999982e+000
1.256128262475901e-004	9.999983e+000
1.265893887475901e-004	9.999982e+000
1.275659512475901e-004	9.999983e+000
1.285425137475901e-004	9.999983e+000
1.295190762475901e-004	9.999983e+000
1.304956387475901e-004	9.999983e+000
1.314722012475901e-004	9.999983e+000
1.324487637475901e-004	9.999982e+000
1.334253262475902e-004	9.999983e+000
1.344018887475902e-004	9.999983e+000
1.353784512475902e-004	9.999983e+000
1.363550137475902e-004	9.999982e+000
1.373315762475902e-004	9.999982e+000
1.383081387475902e-004	9.999982e+000
1.392847012475902e-004	9.999983e+000
1.402612637475902e-004	9.999982e+000
1.412378262475902e-004	9.999982e+000
1.422143887475902e-004	9.999982e+000
1.431909512475902e-004	9.999983e+000
1.441675137475902e-004	9.999983e+000
1.451440762475902e-004	9.999983e+000
1.461206387475902e-004	9.999982e+000
1.470972012475902e-004	9.999982e+000
1.480737637475902e-004	9.999982e+000
1.490503262475902e-004	9.999982e+000
1.500268887475902e-004	9.999982e+000
1.510034512475902e-004	9.999982e+000
1.519800137475902e-004	9.999982e+000
1.529565762475902e-004	9.999983e+000
1.539331387475902e-004	9.999975e+000
1.540234375000000e-004	9.999978e+000
1.542040350048197e-004	9.999984e+000
1.545652300144591e-004	9.999982e+000
1.550000000000000e-004	9.999958e+000
1.550434769985541e-004	9.997198e+000
1.551304309956623e-004	9.994278e+000
1.553043389898786e-004	9.992989e+000
1.555904766148043e-004	9.992126e+000
1.561193121814935e-004	9.989271e+000
1.570958746814935e-004	9.977970e+000
1.580724371814935e-004	9.944088e+000
1.585638934652034e-004	9.885687e+000
1.588419274569477e-004	9.784673e+000
1.590092521072098e-004	9.606320e+000
1.591127871081392e-004	9.274031e+000
1.591835917645081e-004	8.700549e+000
1.592348376393496e-004	7.998396e+000
1.592829157441823e-004	7.227278e+000
1.593529232411164e-004	6.111225e+000
1.594282041703493e-004	4.962517e+000
1.595278898005291e-004	3.621660e+000
1.596916190426044e-004	1.828985e+000
1.598169905111804e-004	8.828002e-001
1.600000000000000e-004	3.709311e-002
1.600012826426465e-004	3.600988e-002
1.600038479279394e-004	3.413309e-002
1.600089784985252e-004	3.165847e-002
1.600155262175719e-004	3.002192e-002
1.600235219693215e-004	2.916887e-002
1.600329929607035e-004	2.875457e-002
1.600466163855273e-004	2.846486e-002
1.600670942871188e-004	2.815675e-002
1.601050437127481e-004	2.766367e-002
1.601809425640068e-004	2.680324e-002
1.603327402665241e-004	2.518848e-002
1.605217606034145e-004	2.254621e-002
1.606495868011064e-004	1.912532e-002
1.607675595909217e-004	1.380632e-002
1.609074816269951e-004	6.320917e-003
1.609651854344077e-004	3.787036e-003
1.610168467376043e-004	2.341736e-003
1.610777452359620e-004	1.309104e-003
1.611431465573862e-004	6.485411e-004
1.611758103158647e-004	4.535944e-004
1.612179285128469e-004	2.990625e-004
1.612541488814241e-004	2.079191e-004
1.612959811244679e-004	1.374197e-004
1.613335421983136e-004	9.446354e-005
1.613748360104280e-004	6.296107e-005
1.614159537752201e-004	4.179454e-005
1.614548783511427e-004	2.840615e-005
1.614956821989204e-004	1.896637e-005
1.615336560073739e-004	1.302606e-005
1.615749422495979e-004	8.724529e-006
1.616208195558255e-004	5.612936e-006
1.616758935098842e-004	3.318585e-006
1.617406938825033e-004	1.797886e-006
1.618245440331984e-004	8.218137e-007
1.619306230609117e-004	3.108958e-007
1.620896727660242e-004	7.636268e-008
1.623275686836462e-004	8.277159e-009
1.628033605188903e-004	-3.096071e-010
1.637549441893783e-004	1.303622e-010
1.647315066893783e-004	8.651568e-011
1.657080691893783e-004	1.116405e-010
1.666846316893783e-004	9.504220e-011
1.676611941893783e-004	1.058424e-010
1.686377566893783e-004	9.879386e-011
1.696143191893783e-004	1.034550e-010
1.705908816893783e-004	1.003855e-010
1.995510267575134e-004	4.073842e-011
2.000000000000000e-004	-4.387236e-006
2.000009877420742e-004	-3.360978e-005
2.000029632262224e-004	-8.185824e-005
2.000049301148415e-004	-1.007995e-004
2.000068263394162e-004	-6.390677e-005
2.000096683495525e-004	1.249138e-004
2.000131786257876e-004	6.331978e-004
2.000182395382245e-004	1.984843e-003
2.000247448604247e-004	4.919336e-003
2.000344501014445e-004	1.191045e-002
2.000487043657586e-004	2.812175e-002
2.000741449097864e-004	7.550068e-002
2.001250259978420e-004	2.380890e-001
2.002267881739533e-004	8.143560e-001
2.004303125261757e-004	2.851157e+000
2.008373612306207e-004	8.906885e+000
2.010997641169333e-004	1.398805e+001
2.013455223102173e-004	1.963673e+001
2.015789609994490e-004	2.545062e+001
2.017356377966613e-004	2.938653e+001
2.018372781862337e-004	3.142450e+001
2.018932999415810e-004	3.115758e+001
2.019272663149590e-004	2.797179e+001
2.019442758134493e-004	2.365794e+001
2.019593265807762e-004	1.891120e+001
2.019757170910891e-004	1.496266e+001
2.019884559062793e-004	1.299486e+001
2.020028560489024e-004	1.170329e+001
2.020186021659841e-004	1.091325e+001
2.020372069314752e-004	1.044525e+001
2.020585936473591e-004	1.020731e+001
2.020860971801280e-004	1.009521e+001
2.021219331573903e-004	1.005304e+001
2.021749533287295e-004	1.004034e+001
2.022585913441600e-004	1.003588e+001
2.024258673750210e-004	1.003060e+001
2.027604194367431e-004	1.002321e+001
2.034295235601873e-004	1.001452e+001
2.041305399827096e-004	1.000963e+001
2.050000000000000e-004	1.000756e+001
2.050869460017291e-004	1.000326e+001
2.052608380051872e-004	1.000021e+001
2.056086220121033e-004	9.999936e+000
2.060911934547702e-004	1.000002e+001
2.070563363401038e-004	9.999981e+000
2.080328988401038e-004	9.999984e+000
2.090094613401038e-004	9.999981e+000
2.099860238401038e-004	9.999984e+000
2.109625863401038e-004	9.999981e+000
2.119391488401038e-004	9.999983e+000
2.129157113401038e-004	9.999981e+000
2.138922738401038e-004	9.999983e+000
2.148688363401038e-004	9.999982e+000
2.158453988401038e-004	9.999983e+000
2.168219613401038e-004	9.999982e+000
2.177985238401038e-004	9.999983e+000
2.187750863401038e-004	9.999982e+000
2.197516488401038e-004	9.999983e+000
2.207282113401038e-004	9.999982e+000
2.217047738401038e-004	9.999983e+000
2.226813363401038e-004	9.999982e+000
2.236578988401038e-004	9.999983e+000
2.246344613401039e-004	9.999982e+000
2.256110238401039e-004	9.999983e+000
2.265875863401039e-004	9.999982e+000
2.275641488401039e-004	9.999983e+000
2.285407113401039e-004	9.999983e+000
2.295172738401039e-004	9.999983e+000
2.304938363401039e-004	9.999983e+000
2.314703988401039e-004	9.999983e+000
2.324469613401039e-004	9.999983e+000
2.334235238401039e-004	9.999983e+000
2.344000863401039e-004	9.999982e+000
2.353766488401039e-004	9.999982e+000
2.363532113401039e-004	9.999982e+000
2.373297738401039e-004	9.999982e+000
2.383063363401039e-004	9.999982e+000
2.392828988401039e-004	9.999983e+000
2.402594613401039e-004	9.999982e+000
2.412360238401039e-004	9.999982e+000
2.422125863401039e-004	9.999982e+000
2.431891488401039e-004	9.999983e+000
2.441657113401039e-004	9.999983e+000
2.451422738401039e-004	9.999983e+000
2.461188363401039e-004	9.999983e+000
2.470953988401039e-004	9.999983e+000
2.480719613401039e-004	9.999983e+000
2.490485238401039e-004	9.999983e+000
2.500250863401039e-004	9.999983e+000
2.510016488401039e-004	9.999983e+000
2.519782113401039e-004	9.999983e+000
2.529547738401039e-004	9.999983e+000
2.539313363401039e-004	9.999975e+000
2.540234375000000e-004	9.999979e+000
2.542076398197923e-004	9.999985e+000
2.545760444593769e-004	9.999982e+000
2.550000000000000e-004	9.999958e+000
2.550423955540624e-004	9.997228e+000
2.551271866621870e-004	9.994312e+000
2.552967688784362e-004	9.993011e+000
2.555783933402357e-004	9.992173e+000
2.560918985726344e-004	9.989448e+000
2.570684610726344e-004	9.978492e+000
2.580450235726344e-004	9.945756e+000
2.585560917136014e-004	9.887150e+000
2.588372260814073e-004	9.787314e+000
2.590074222931619e-004	9.608746e+000
2.591124634699248e-004	9.273564e+000
2.591839472168835e-004	8.694631e+000
2.592355679743408e-004	7.986831e+000
2.592839907614427e-004	7.209989e+000
2.593541285825780e-004	6.092210e+000
2.594296256202684e-004	4.941716e+000
2.595299340831977e-004	3.597038e+000
2.596957600624937e-004	1.788112e+000
2.598166551951655e-004	8.800398e-001
2.600000000000000e-004	3.707023e-002
2.600012802010348e-004	3.599412e-002
2.600038406031043e-004	3.412541e-002
2.600089614072433e-004	3.165847e-002
2.600155166326431e-004	3.002132e-002
2.600235107007413e-004	2.916870e-002
2.600329906284911e-004	2.875433e-002
2.600466074439572e-004	2.846486e-002
2.600671053314688e-004	2.815650e-002
2.601050534364849e-004	2.766345e-002
2.601809496465171e-004	2.680309e-002
2.603327420665814e-004	2.518839e-002
2.605217597024847e-004	2.254609e-002
2.606495863743126e-004	1.912506e-002
2.607675596093478e-004	1.380596e-002
2.609074796622615e-004	6.320722e-003
2.609651886511066e-004	3.786706e-003
2.610168511504452e-004	2.341475e-003
2.610777486511173e-004	1.308970e-003
2.611431550588039e-004	6.484524e-004
2.611758304188066e-004	4.534744e-004
2.612179518471708e-004	2.989697e-004
2.612541706506913e-004	2.078567e-004
2.612959994381496e-004	1.373830e-004
2.613335561296228e-004	9.444269e-005
2.613748488078389e-004	6.294836e-005
2.614159695489249e-004	4.178486e-005
2.614548912584208e-004	2.840036e-005
2.614956992783432e-004	1.896171e-005
2.615336674710643e-004	1.302360e-005
2.615749629494272e-004	8.723726e-006
2.616210686319854e-004	5.601846e-006
2.616764821509665e-004	3.301822e-006
2.617417545931944e-004	1.781163e-006
2.618263078106833e-004	8.091646e-007
2.619335056587871e-004	3.032186e-007
2.620947260769386e-004	7.317978e-008
2.623369958111805e-004	7.498026e-009
2.628215352796641e-004	-3.129420e-010
2.637906142166315e-004	1.275575e-010
2.647671767166315e-004	8.503775e-011
2.657437392166315e-004	1.118678e-010
2.667203017166315e-004	9.447376e-011
2.676968642166315e-004	1.059561e-010
2.686734267166315e-004	9.856649e-011
2.696499892166315e-004	1.034550e-010
2.706265517166315e-004	1.002718e-010
2.747488839285714e-004	1.116658e-010
2.788712161405113e-004	1.156987e-010
2.829935483524513e-004	1.123706e-010
2.871158805643913e-004	1.016814e-010
2.912382127763312e-004	8.363120e-011
2.953605449882711e-004	5.821995e-011
2.994828772002111e-004	2.544767e-011
3.000000000000000e-004	-4.415820e-006
3.000011376712150e-004	-3.713755e-005
3.000034130136450e-004	-8.430542e-005
3.000059446903794e-004	-8.332213e-005
3.000083121087144e-004	1.275953e-005
3.000115060325311e-004	3.461431e-004
3.000156237804754e-004	1.188498e-003
3.000214966893235e-004	3.281976e-003
3.000293997199610e-004	7.880032e-003
3.000413381867008e-004	1.883378e-002
3.000601554430176e-004	4.649385e-002
3.000967308880971e-004	1.366644e-001
3.001698817782563e-004	4.520036e-001
3.003161835585746e-004	1.573054e+000
3.006087871192112e-004	5.218063e+000
3.009972806367379e-004	1.196480e+001
3.012628698221098e-004	1.767681e+001
3.014965742162319e-004	2.335919e+001
3.016834256399901e-004	2.808027e+001
