time	Id(M1)
0.000000000000000e+000	1.250555e-010
9.765625114122045e-011	-3.540122e-006
9.996968650957740e-011	-3.645600e-006
1.045965572462913e-010	-3.757475e-006
1.138502987197191e-010	-3.933401e-006
1.323577816665746e-010	-4.767579e-006
1.693727475602857e-010	-6.239205e-006
2.434026793477079e-010	-8.846128e-006
3.914625429225523e-010	-1.419822e-005
6.875822700722410e-010	-2.443385e-005
1.279821724371619e-009	-4.341675e-005
2.123015724748701e-009	-6.662829e-005
3.356186785937805e-009	-9.040951e-005
4.975831617871365e-009	-9.650648e-005
7.183016553450348e-009	-4.164654e-005
1.004082228018252e-008	1.742068e-004
1.387138638910282e-008	7.837270e-004
1.893397798161039e-008	2.246038e-003
2.595276370321879e-008	5.619840e-003
3.596895498116541e-008	1.326255e-002
5.164517559043380e-008	3.214478e-002
7.938551328715729e-008	8.687080e-002
1.348661886806043e-007	2.749059e-001
2.458275394674982e-007	9.402674e-001
4.677502410412861e-007	3.260103e+000
9.115956441888618e-007	9.874797e+000
1.151237657878740e-006	1.415059e+001
1.344713904319989e-006	1.788293e+001
1.511305724119081e-006	2.109200e+001
1.631315905943047e-006	2.312700e+001
1.693506390547036e-006	2.339166e+001
1.726858023145305e-006	2.218772e+001
1.744176942390890e-006	1.992079e+001
1.752572546627988e-006	1.751992e+001
1.758719442575372e-006	1.523624e+001
1.765732028664858e-006	1.305760e+001
1.772111632601307e-006	1.178899e+001
1.780013637698026e-006	1.090765e+001
1.787399173521324e-006	1.048011e+001
1.797266842651548e-006	1.022064e+001
1.808077825766724e-006	1.010121e+001
1.824255675152596e-006	1.004142e+001
1.843806414798154e-006	1.002094e+001
1.877766309001885e-006	1.001459e+001
1.923338499467347e-006	1.001300e+001
2.014482880398272e-006	1.001168e+001
2.196771642260121e-006	1.000957e+001
2.561349165983820e-006	1.000684e+001
3.181941007249776e-006	1.000425e+001
3.893086777552588e-006	1.000265e+001
4.093334718522740e-006	1.000236e+001
4.493830600463043e-006	1.000194e+001
5.000000000000000e-006	1.000099e+001
5.050616939953696e-006	1.000054e+001
5.151850819861087e-006	1.000007e+001
5.354318579675870e-006	9.999975e+000
5.675255639447828e-006	1.000000e+001
6.317129758991745e-006	9.999990e+000
7.293692258991745e-006	9.999992e+000
8.270254758991745e-006	9.999992e+000
9.246817258991746e-006	9.999992e+000
1.022337975899175e-005	9.999992e+000
1.119994225899175e-005	9.999992e+000
1.217650475899175e-005	9.999992e+000
1.315306725899175e-005	9.999992e+000
1.412962975899175e-005	9.999992e+000
1.510619225899175e-005	9.999992e+000
1.608275475899175e-005	9.999992e+000
1.705931725899175e-005	9.999992e+000
1.803587975899175e-005	9.999992e+000
1.901244225899176e-005	9.999992e+000
1.998900475899176e-005	9.999992e+000
2.096556725899176e-005	9.999992e+000
2.194212975899176e-005	9.999992e+000
2.291869225899176e-005	9.999992e+000
2.389525475899176e-005	9.999992e+000
2.487181725899176e-005	9.999992e+000
2.584837975899176e-005	9.999992e+000
2.682494225899176e-005	9.999992e+000
2.780150475899176e-005	9.999992e+000
2.877806725899176e-005	9.999992e+000
2.975462975899176e-005	9.999992e+000
3.073119225899176e-005	9.999992e+000
3.170775475899176e-005	9.999992e+000
3.268431725899176e-005	9.999992e+000
3.366087975899176e-005	9.999992e+000
3.463744225899177e-005	9.999992e+000
3.561400475899177e-005	9.999992e+000
3.659056725899177e-005	9.999992e+000
3.756712975899177e-005	9.999992e+000
3.854369225899177e-005	9.999992e+000
3.952025475899177e-005	9.999992e+000
4.049681725899177e-005	9.999992e+000
4.147337975899177e-005	9.999992e+000
4.244994225899177e-005	9.999992e+000
4.342650475899177e-005	9.999992e+000
4.440306725899177e-005	9.999992e+000
4.537962975899178e-005	9.999992e+000
4.635619225899178e-005	9.999992e+000
4.733275475899178e-005	9.999992e+000
4.830931725899178e-005	9.999992e+000
4.928587975899178e-005	9.999992e+000
5.026244225899178e-005	9.999992e+000
5.123900475899178e-005	9.999992e+000
5.221556725899178e-005	9.999992e+000
5.319212975899178e-005	9.999992e+000
5.402343750000000e-005	9.999992e+000
5.500000000000000e-005	9.999968e+000
5.509765625000001e-005	9.999040e+000
5.529296875000000e-005	9.998296e+000
5.568359375000000e-005	9.997905e+000
5.619659413171165e-005	9.997190e+000
5.717315663171165e-005	9.994032e+000
5.814971913171165e-005	9.984533e+000
5.853887669636606e-005	9.972600e+000
5.878528518539325e-005	9.951978e+000
5.892879626377189e-005	9.922996e+000
5.901593656557810e-005	9.882542e+000
5.907562700963122e-005	9.819424e+000
5.911814659403785e-005	9.715128e+000
5.914820940266158e-005	9.547696e+000
5.917083771967555e-005	9.335073e+000
5.919214477274177e-005	9.088689e+000
5.922988668796423e-005	8.599221e+000
5.928638292282314e-005	7.762215e+000
5.933877242466182e-005	6.931795e+000
5.941321512442283e-005	5.796396e+000
5.951816079130270e-005	4.367967e+000
5.964179482794716e-005	2.945189e+000
5.980344594417485e-005	1.520937e+000
6.000000000000000e-005	2.466502e-001
6.000411115253535e-005	2.387448e-001
6.001233345760606e-005	2.288760e-001
6.002877806774747e-005	2.207375e-001
6.004553327568644e-005	2.170501e-001
6.006375807701218e-005	2.129798e-001
6.010020767966365e-005	1.984952e-001
6.017310688496660e-005	1.479708e-001
6.024080051509304e-005	8.360425e-002
6.029228840320059e-005	3.524582e-002
6.031605073527011e-005	2.024613e-002
6.034734953111258e-005	9.983704e-003
6.038015661792548e-005	4.296335e-003
6.040267911334659e-005	2.338663e-003
6.042006324244604e-005	1.544496e-003
6.044050528268016e-005	9.879289e-004
6.046361031723408e-005	5.979374e-004
6.048494959144229e-005	3.771688e-004
6.050573030947398e-005	2.440359e-004
6.052555632812657e-005	1.623870e-004
6.054555236511996e-005	1.084434e-004
6.056554234621815e-005	7.258174e-005
6.058515616735614e-005	4.909932e-005
6.060541547990944e-005	3.280773e-005
6.062440909185650e-005	2.242620e-005
6.064240884525981e-005	1.571740e-005
6.066173140810628e-005	1.072137e-005
6.067863350278366e-005	7.672677e-006
6.069757686271395e-005	5.306455e-006
6.071645476140488e-005	3.654101e-006
6.073447795744401e-005	2.578328e-006
6.075706076536364e-005	1.661776e-006
6.077756837853216e-005	1.121202e-006
6.080654455663411e-005	6.417128e-007
6.083313512376105e-005	3.902766e-007
6.087649015285287e-005	1.720300e-007
6.091744451403849e-005	8.326060e-008
6.099935323640973e-005	1.909045e-008
6.108303731494847e-005	4.773180e-009
6.125040547202592e-005	-4.286053e-010
6.150602148011432e-005	7.586702e-010
6.201725349629112e-005	-1.832382e-010
6.299381599629112e-005	1.248281e-010
9.902343750000000e-005	8.465219e-011
1.000000000000000e-004	-1.247025e-005
1.000021484398612e-004	-4.781006e-005
1.000064453195837e-004	8.135796e-005
1.000150390790287e-004	1.197369e-003
1.000207018180425e-004	2.878023e-003
1.000272000283390e-004	6.228178e-003
1.000362149690623e-004	1.350618e-002
1.000542448505090e-004	3.661960e-002
1.000860833611907e-004	1.047834e-001
1.001497603825541e-004	3.436213e-001
1.002771144252808e-004	1.194686e+000
1.005318225107343e-004	4.013990e+000
1.009168800560850e-004	9.901108e+000
1.011420098257712e-004	1.396844e+001
1.013343927871485e-004	1.768208e+001
1.015063865046682e-004	2.100231e+001
1.016244732298590e-004	2.304665e+001
1.016887840457114e-004	2.347277e+001
1.017236191963511e-004	2.245299e+001
1.017423692096668e-004	2.035185e+001
1.017518957070143e-004	1.794530e+001
1.017575977114550e-004	1.586797e+001
1.017645388223969e-004	1.351666e+001
1.017708241726993e-004	1.209508e+001
1.017787551266236e-004	1.106281e+001
1.017859886131900e-004	1.056381e+001
1.017951816135088e-004	1.026980e+001
1.018057575446493e-004	1.012274e+001
1.018198738039646e-004	1.005266e+001
1.018395655158865e-004	1.002387e+001
1.018661256676794e-004	1.001551e+001
1.019108572325287e-004	1.001331e+001
1.019837429179343e-004	1.001210e+001
1.021295142887455e-004	1.001026e+001
1.024210570303678e-004	1.000775e+001
1.030041425136125e-004	1.000490e+001
1.038979854717052e-004	1.000259e+001
1.040234375000000e-004	1.000241e+001
1.042743415565897e-004	1.000214e+001
1.044981918868207e-004	1.000197e+001
1.046605142449725e-004	1.000178e+001
1.047835701891309e-004	1.000169e+001
1.050000000000000e-004	1.000265e+001
1.050216429810869e-004	1.000134e+001
1.050649289432607e-004	1.000027e+001
1.051515008676084e-004	9.999968e+000
1.053246447163037e-004	9.999996e+000
1.055810804800852e-004	9.999990e+000
1.060939520076483e-004	9.999992e+000
1.070705145076483e-004	9.999992e+000
1.080470770076483e-004	9.999992e+000
1.090236395076483e-004	9.999992e+000
1.100002020076483e-004	9.999992e+000
1.109767645076483e-004	9.999992e+000
1.119533270076483e-004	9.999992e+000
1.129298895076483e-004	9.999992e+000
1.139064520076483e-004	9.999992e+000
1.148830145076483e-004	9.999992e+000
1.158595770076483e-004	9.999992e+000
1.168361395076483e-004	9.999992e+000
1.178127020076483e-004	9.999992e+000
1.187892645076484e-004	9.999992e+000
1.197658270076484e-004	9.999992e+000
1.207423895076484e-004	9.999992e+000
1.217189520076484e-004	9.999992e+000
1.226955145076484e-004	9.999992e+000
1.236720770076484e-004	9.999992e+000
1.246486395076484e-004	9.999992e+000
1.256252020076484e-004	9.999992e+000
1.266017645076484e-004	9.999992e+000
1.275783270076484e-004	9.999992e+000
1.285548895076484e-004	9.999992e+000
1.295314520076484e-004	9.999992e+000
1.305080145076484e-004	9.999992e+000
1.314845770076484e-004	9.999992e+000
1.324611395076484e-004	9.999992e+000
1.334377020076484e-004	9.999992e+000
1.344142645076484e-004	9.999992e+000
1.353908270076484e-004	9.999992e+000
1.363673895076484e-004	9.999992e+000
1.373439520076484e-004	9.999992e+000
1.383205145076484e-004	9.999992e+000
1.392970770076484e-004	9.999992e+000
1.402736395076484e-004	9.999992e+000
1.412502020076484e-004	9.999992e+000
1.422267645076484e-004	9.999992e+000
1.432033270076484e-004	9.999992e+000
1.441798895076484e-004	9.999992e+000
1.451564520076484e-004	9.999992e+000
1.461330145076484e-004	9.999992e+000
1.471095770076484e-004	9.999992e+000
1.480861395076484e-004	9.999992e+000
1.490627020076484e-004	9.999992e+000
1.500392645076484e-004	9.999992e+000
1.510158270076484e-004	9.999992e+000
1.519923895076484e-004	9.999992e+000
1.529689520076484e-004	9.999992e+000
1.539455145076484e-004	9.999989e+000
1.540234375000000e-004	9.999990e+000
1.541792834847033e-004	9.999993e+000
1.544909754541098e-004	9.999992e+000
1.550000000000000e-004	9.999978e+000
1.550509024545890e-004	9.999170e+000
1.551527073637670e-004	9.998454e+000
1.553563171821231e-004	9.998203e+000
1.556736259562575e-004	9.997931e+000
1.563082435045263e-004	9.996957e+000
1.572848060045263e-004	9.993345e+000
1.582613685045263e-004	9.981810e+000
1.586286245547456e-004	9.966300e+000
1.588642082651192e-004	9.937147e+000
1.590009974383998e-004	9.886644e+000
1.590834854561069e-004	9.794215e+000
1.591348649810908e-004	9.614979e+000
1.591668078704298e-004	9.366979e+000
1.591956472222625e-004	9.046681e+000
1.592258465352668e-004	8.657866e+000
1.592763845629579e-004	7.917453e+000
1.593289915643022e-004	7.086082e+000
1.593987915674420e-004	6.009808e+000
1.595047681908624e-004	4.538402e+000
1.596203252372196e-004	3.185156e+000
1.598070135256347e-004	1.513219e+000
1.600000000000000e-004	2.473639e-001
1.600041910960265e-004	2.391202e-001
1.600125732880796e-004	2.289229e-001
1.600293376721856e-004	2.206314e-001
1.600462099990029e-004	2.169372e-001
1.600644106263917e-004	2.128510e-001
1.601008118811695e-004	1.982945e-001
1.601736143907250e-004	1.476492e-001
1.602410997303875e-004	8.336084e-002
1.602920742398641e-004	3.543258e-002
1.603158412086032e-004	2.039709e-002
1.603472798378946e-004	1.003710e-002
1.603802007947720e-004	4.295815e-003
1.604022827679554e-004	2.362373e-003
1.604195579727024e-004	1.565972e-003
1.604400433066300e-004	1.000810e-003
1.604632133896803e-004	6.046233e-004
1.604845988505678e-004	3.808206e-004
1.605053703297798e-004	2.463714e-004
1.605252058784743e-004	1.638897e-004
1.605451888098191e-004	1.094676e-004
1.605652021632372e-004	7.322842e-005
1.605847917503838e-004	4.955882e-005
1.606050921099201e-004	3.308638e-005
1.606240359921766e-004	2.263277e-005
1.606419398441863e-004	1.589266e-005
1.606612362891724e-004	1.085876e-005
1.606786794183887e-004	7.686322e-006
1.606972585944137e-004	5.358870e-006
1.607174769455493e-004	3.604579e-006
1.607368578100556e-004	2.483001e-006
1.607626595509027e-004	1.507922e-006
1.607864688897592e-004	9.593273e-007
1.608229452509189e-004	4.795875e-007
1.608572309282157e-004	2.578781e-007
1.609258022828095e-004	7.475955e-008
1.609896429378304e-004	2.168599e-008
1.611173242478724e-004	1.744065e-009
1.612885031259155e-004	9.351121e-010
1.616308608820018e-004	-3.668295e-010
1.623155763941744e-004	2.763023e-010
1.632921388941744e-004	1.264198e-010
1.990234375000000e-004	3.829413e-010
2.000000000000000e-004	1.324670e-005
2.000021484388567e-004	-3.918368e-005
2.000064453165700e-004	8.135822e-005
2.000150390719967e-004	1.197184e-003
2.000206987776920e-004	2.876732e-003
2.000271980552331e-004	6.226975e-003
2.000362105673887e-004	1.350178e-002
2.000542355916998e-004	3.660427e-002
2.000860624697184e-004	1.047260e-001
2.001497162257556e-004	3.434085e-001
2.002770237378299e-004	1.193912e+000
2.005316387619785e-004	4.011876e+000
2.009170027932036e-004	9.903607e+000
2.011422261008444e-004	1.397261e+001
2.013346309253929e-004	1.768671e+001
2.015065410199138e-004	2.100517e+001
2.016246581302904e-004	2.304903e+001
2.016889122137301e-004	2.347125e+001
2.017237078124421e-004	2.244691e+001
2.017424212959678e-004	2.034121e+001
2.017519253606955e-004	1.793266e+001
2.017576343844918e-004	1.585176e+001
2.017645766722863e-004	1.350482e+001
2.017708660044798e-004	1.208672e+001
2.017787933899801e-004	1.105878e+001
2.017860319619851e-004	1.056157e+001
2.017952371781254e-004	1.026854e+001
2.018058234032931e-004	1.012215e+001
2.018199769121717e-004	1.005236e+001
2.018396775608617e-004	1.002379e+001
2.018663622812958e-004	1.001548e+001
2.019111376740193e-004	1.001330e+001
2.019844699820085e-004	1.001209e+001
2.021311345979869e-004	1.001024e+001
2.024244638299437e-004	1.000772e+001
2.030111222938573e-004	1.000487e+001
2.039045222485180e-004	1.000257e+001
2.040234375000000e-004	1.000241e+001
2.045243389940721e-004	1.000190e+001
2.050000000000000e-004	1.000021e+001
2.050475661005928e-004	1.000028e+001
2.051426983017784e-004	1.000008e+001
2.053329627041496e-004	9.999973e+000
2.056404942870642e-004	1.000000e+001
2.062519960485210e-004	9.999990e+000
2.072285585485210e-004	9.999992e+000
2.082051210485210e-004	9.999992e+000
2.091816835485210e-004	9.999992e+000
2.101582460485210e-004	9.999992e+000
2.111348085485210e-004	9.999992e+000
2.121113710485210e-004	9.999992e+000
2.130879335485210e-004	9.999992e+000
2.140644960485210e-004	9.999992e+000
2.150410585485210e-004	9.999992e+000
2.160176210485210e-004	9.999992e+000
2.169941835485210e-004	9.999992e+000
2.179707460485210e-004	9.999992e+000
2.189473085485210e-004	9.999992e+000
2.199238710485210e-004	9.999992e+000
2.209004335485210e-004	9.999992e+000
2.218769960485210e-004	9.999992e+000
2.228535585485210e-004	9.999992e+000
2.238301210485210e-004	9.999992e+000
2.248066835485210e-004	9.999992e+000
2.257832460485210e-004	9.999992e+000
2.267598085485210e-004	9.999992e+000
2.277363710485210e-004	9.999992e+000
2.287129335485210e-004	9.999992e+000
2.296894960485210e-004	9.999992e+000
2.306660585485210e-004	9.999992e+000
2.316426210485210e-004	9.999992e+000
2.326191835485210e-004	9.999992e+000
2.335957460485211e-004	9.999992e+000
2.345723085485211e-004	9.999992e+000
2.355488710485211e-004	9.999992e+000
2.365254335485211e-004	9.999992e+000
2.375019960485211e-004	9.999992e+000
2.384785585485211e-004	9.999992e+000
2.394551210485211e-004	9.999992e+000
2.404316835485211e-004	9.999992e+000
2.414082460485211e-004	9.999992e+000
2.423848085485211e-004	9.999992e+000
2.433613710485211e-004	9.999992e+000
2.443379335485211e-004	9.999992e+000
2.453144960485211e-004	9.999992e+000
2.462910585485211e-004	9.999992e+000
2.472676210485211e-004	9.999992e+000
2.482441835485211e-004	9.999992e+000
2.492207460485211e-004	9.999992e+000
2.501973085485211e-004	9.999992e+000
2.511738710485211e-004	9.999992e+000
2.521504335485211e-004	9.999992e+000
2.531269960485211e-004	9.999992e+000
2.541035585485211e-004	9.999992e+000
2.550000000000000e-004	9.999964e+000
2.550896441451479e-004	9.999053e+000
2.552689324354437e-004	9.998319e+000
2.556275090160353e-004	9.997964e+000
2.561071103527023e-004	9.997341e+000
2.570663130260363e-004	9.994588e+000
2.580428755260363e-004	9.986146e+000
2.585389535166425e-004	9.971735e+000
2.588129833556182e-004	9.945956e+000
2.589757504640564e-004	9.899696e+000
2.590726745774153e-004	9.811565e+000
2.591302071150879e-004	9.634188e+000
2.591652640564355e-004	9.377327e+000
2.591972838487338e-004	9.026694e+000
2.592266901198915e-004	8.646465e+000
2.592777916590826e-004	7.895260e+000
2.593305550261150e-004	7.061044e+000
2.594012074326597e-004	5.973587e+000
2.595069525398597e-004	4.510272e+000
2.596238329420795e-004	3.148465e+000
2.598121142207838e-004	1.471573e+000
2.600000000000000e-004	2.474841e-001
2.600042214906323e-004	2.391327e-001
2.600126644718968e-004	2.288652e-001
2.600295504344260e-004	2.205641e-001
2.600465088205254e-004	2.168600e-001
2.600647605721879e-004	2.127390e-001
2.601012640755129e-004	1.980352e-001
2.601742710821630e-004	1.469973e-001
2.602414893579751e-004	8.280570e-002
2.602916139239151e-004	3.563530e-002
2.603153674532886e-004	2.058861e-002
2.603471350251151e-004	1.007607e-002
2.603803005260451e-004	4.264315e-003
2.604016282464175e-004	2.386512e-003
2.604187142999320e-004	1.592476e-003
2.604392895851782e-004	1.016095e-003
2.604625436571570e-004	6.123718e-004
2.604839978748456e-004	3.848953e-004
2.605047469815233e-004	2.490261e-004
2.605245943446522e-004	1.655989e-004
2.605445630645214e-004	1.106302e-004
2.605645974647809e-004	7.397110e-005
2.605841729124787e-004	5.007224e-005
2.606044950343614e-004	3.341371e-005
2.606234170282199e-004	2.286358e-005
2.606412849097254e-004	1.606628e-005
2.606605725515177e-004	1.099147e-005
2.606786276043060e-004	7.684975e-006
2.606969061408326e-004	5.390300e-006
2.607181362779424e-004	3.562799e-006
2.607384748064842e-004	2.412774e-006
2.607666170276134e-004	1.404162e-006
2.607928450402298e-004	8.559893e-007
2.608351320172436e-004	3.864544e-007
2.608754219135813e-004	1.854740e-007
2.609560017062568e-004	4.456404e-008
2.610380078018122e-004	8.958978e-009
2.612020199929227e-004	-2.979459e-010
2.614605521492229e-004	7.701904e-010
2.619776164618232e-004	-1.953560e-010
2.629541789618232e-004	1.243734e-010
2.922510539618232e-004	1.250555e-010
2.990869914618232e-004	1.514275e-010
3.000000000000000e-004	-1.356556e-005
3.000020086214101e-004	-4.839703e-005
3.000060258642303e-004	4.470206e-005
3.000140603498707e-004	9.426976e-004
3.000192758050140e-004	2.320850e-003
3.000254826165565e-004	5.213600e-003
3.000337828326819e-004	1.133236e-002
3.000503832649328e-004	3.059517e-002
3.000771641872624e-004	8.159280e-002
3.001307260319215e-004	2.576117e-001
3.002378497212396e-004	8.806992e-001
3.004520970998760e-004	3.060604e+000
3.008805918571489e-004	9.314759e+000
3.011128106823446e-004	1.341356e+001
3.013035983454141e-004	1.708322e+001
3.014825821722663e-004	2.055342e+001
3.016007829974590e-004	2.269967e+001
3.016731652969661e-004	2.353569e+001
3.017132290023039e-004	2.299917e+001
3.017361410853926e-004	2.139949e+001
3.017480759275366e-004	1.923281e+001
3.017545073070251e-004	1.708099e+001
3.017616719786279e-004	1.443562e+001
3.017696227304651e-004	1.234929e+001
3.017771475731184e-004	1.120821e+001
3.017845732618683e-004	1.063019e+001
3.017927484787784e-004	1.032382e+001
